Azimuth Angle,Flap,FlapRate,FlapAcceleration,PitchLinkMoment
0,-0.00153829,-0.0123563,-22.0283,17.9582
0.0174533,-0.00154859,-0.0307132,-22.0183,17.962
0.0349066,-0.00157418,-0.0490618,-22.0017,17.9658
0.0523599,-0.00161507,-0.0673966,-21.9785,17.9697
0.0698132,-0.00167123,-0.085712,-21.9487,17.9736
0.0872665,-0.00174266,-0.104003,-21.9122,17.9774
0.10472,-0.00182933,-0.122263,-21.8691,17.9813
0.122173,-0.00193121,-0.140487,-21.8194,17.9852
0.139626,-0.00204829,-0.15867,-21.7632,17.9891
0.15708,-0.00218051,-0.176806,-21.7004,17.993
0.174533,-0.00232785,-0.19489,-21.631,17.9969
0.191986,-0.00249026,-0.212915,-21.5551,18.0008
0.20944,-0.00266769,-0.230878,-21.4727,18.0047
0.226893,-0.00286009,-0.248772,-21.3838,18.0086
0.244346,-0.0030674,-0.266592,-21.2885,18.0125
0.261799,-0.00328956,-0.284332,-21.1867,18.0164
0.279253,-0.0035265,-0.301988,-21.0785,18.0203
0.296706,-0.00377816,-0.319553,-20.964,18.0242
0.314159,-0.00404445,-0.337023,-20.8431,18.028
0.331613,-0.0043253,-0.354392,-20.7159,18.0319
0.349066,-0.00462063,-0.371656,-20.5824,18.0357
0.366519,-0.00493034,-0.388808,-20.4427,18.0396
0.383972,-0.00525435,-0.405843,-20.2968,18.0434
0.401426,-0.00559255,-0.422757,-20.1447,18.0472
0.418879,-0.00594485,-0.439544,-19.9866,18.0509
0.436332,-0.00631114,-0.4562,-19.8224,18.0547
0.453786,-0.0066913,-0.472718,-19.6521,18.0584
0.471239,-0.00708523,-0.489095,-19.4759,18.0621
0.488692,-0.00749281,-0.505325,-19.2938,18.0657
0.506145,-0.00791392,-0.521403,-19.1058,18.0694
0.523599,-0.00834842,-0.537325,-18.912,18.073
0.541052,-0.00879619,-0.553085,-18.7125,18.0765
0.558505,-0.0092571,-0.568679,-18.5072,18.08
0.575959,-0.00973099,-0.584101,-18.2963,18.0835
0.593412,-0.0102177,-0.599348,-18.0799,18.087
0.610865,-0.0107172,-0.614415,-17.8579,18.0904
0.628319,-0.0112292,-0.629296,-17.6305,18.0937
0.645772,-0.0117536,-0.643988,-17.3976,18.097
0.663225,-0.0122903,-0.658486,-17.1595,18.1003
0.680678,-0.012839,-0.672786,-16.9161,18.1035
0.698132,-0.0133997,-0.686883,-16.6676,18.1066
0.715585,-0.0139721,-0.700772,-16.4139,18.1097
0.733038,-0.0145561,-0.714451,-16.1552,18.1128
0.750492,-0.0151514,-0.727913,-15.8916,18.1158
0.767945,-0.015758,-0.741156,-15.623,18.1187
0.785398,-0.0163757,-0.754175,-15.3497,18.1215
0.802851,-0.0170041,-0.766967,-15.0717,18.1243
0.820305,-0.0176433,-0.779527,-14.789,18.127
0.837758,-0.0182929,-0.791851,-14.5017,18.1297
0.855211,-0.0189528,-0.803936,-14.21,18.1322
0.872665,-0.0196227,-0.815777,-13.9139,18.1347
0.890118,-0.0203025,-0.827372,-13.6135,18.1371
0.907571,-0.020992,-0.838717,-13.3089,18.1395
0.925025,-0.0216909,-0.849807,-13.0001,18.1417
0.942478,-0.0223991,-0.860641,-12.6874,18.1439
0.959931,-0.0231163,-0.871214,-12.3707,18.146
0.977384,-0.0238423,-0.881523,-12.0501,18.148
0.994838,-0.0245769,-0.891564,-11.7258,18.1499
1.01229,-0.0253199,-0.901336,-11.3979,18.1518
1.02974,-0.026071,-0.910834,-11.0663,18.1535
1.0472,-0.02683,-0.920056,-10.7314,18.1552
1.06465,-0.0275967,-0.928999,-10.3931,18.1567
1.0821,-0.0283709,-0.93766,-10.0515,18.1582
1.09956,-0.0291523,-0.946036,-9.70674,18.1595
1.11701,-0.0299407,-0.954125,-9.35895,18.1608
1.13446,-0.0307358,-0.961924,-9.00822,18.1619
1.15192,-0.0315374,-0.969431,-8.65465,18.163
1.16937,-0.0323452,-0.976643,-8.29834,18.164
1.18682,-0.0331591,-0.983558,-7.9394,18.1648
1.20428,-0.0339787,-0.990175,-7.57795,18.1655
1.22173,-0.0348039,-0.99649,-7.21408,18.1662
1.23918,-0.0356343,-1.0025,-6.84791,18.1667
1.25664,-0.0364697,-1.00821,-6.47955,18.1671
1.27409,-0.0373099,-1.01361,-6.10911,18.1674
1.29154,-0.0381545,-1.0187,-5.73671,18.1676
1.309,-0.0390035,-1.02348,-5.36245,18.1677
1.32645,-0.0398563,-1.02795,-4.98646,18.1676
1.3439,-0.040713,-1.0321,-4.60883,18.1675
1.36136,-0.0415731,-1.03594,-4.2297,18.1672
1.37881,-0.0424363,-1.03947,-3.84918,18.1668
1.39626,-0.0433026,-1.04268,-3.46738,18.1663
1.41372,-0.0441715,-1.04557,-3.08441,18.1657
1.43117,-0.0450428,-1.04814,-2.70041,18.165
1.44862,-0.0459162,-1.05039,-2.31548,18.1641
1.46608,-0.0467915,-1.05232,-1.92974,18.1632
1.48353,-0.0476685,-1.05392,-1.5433,18.1626
1.50098,-0.0485467,-1.05521,-1.1563,18.162
1.51844,-0.0494261,-1.05617,-0.768849,18.1611
1.53589,-0.0503062,-1.05681,-0.38107,18.16
1.55334,-0.0511869,-1.05713,0.00691712,18.1587
1.5708,-0.0520678,-1.05713,0.394992,18.1572
1.58825,-0.0529488,-1.0568,0.783034,18.1554
1.6057,-0.0538294,-1.05614,1.17092,18.1534
1.62316,-0.0547096,-1.05517,1.55854,18.1512
1.64061,-0.0555889,-1.05387,1.94576,18.1488
1.65806,-0.0564671,-1.05225,2.33246,18.1461
1.67552,-0.057344,-1.0503,2.71854,18.1432
1.69297,-0.0582192,-1.04804,3.10385,18.1401
1.71042,-0.0590926,-1.04545,3.48829,18.137
1.72788,-0.0599638,-1.04255,3.87175,18.1342
1.74533,-0.0608326,-1.03932,4.25408,18.1313
1.76278,-0.0616987,-1.03577,4.63519,18.1284
1.78024,-0.0625618,-1.03191,5.01494,18.1252
1.79769,-0.0634218,-1.02773,5.39322,18.122
1.81514,-0.0642782,-1.02324,5.7699,18.1187
1.8326,-0.0651309,-1.01843,6.14487,18.1153
1.85005,-0.0659796,-1.01331,6.51802,18.1117
1.8675,-0.066824,-1.00788,6.88922,18.1081
1.88496,-0.0676639,-1.00214,7.25835,18.1043
1.90241,-0.068499,-0.996088,7.6253,18.1004
1.91986,-0.0693291,-0.989733,7.98996,18.0965
1.93732,-0.0701539,-0.983075,8.35221,18.0924
1.95477,-0.0709731,-0.976115,8.71193,18.0882
1.97222,-0.0717865,-0.968855,9.06901,18.084
1.98968,-0.0725939,-0.961298,9.42334,18.0796
2.00713,-0.073395,-0.953445,9.77481,18.0752
2.02458,-0.0741895,-0.945299,10.1233,18.0706
2.04204,-0.0749773,-0.936863,10.4687,18.066
2.05949,-0.075758,-0.928139,10.8109,18.0612
2.07694,-0.0765315,-0.91913,11.1498,18.0564
2.0944,-0.0772974,-0.909839,11.4853,18.0515
2.11185,-0.0780556,-0.900267,11.8173,18.0465
2.1293,-0.0788058,-0.89042,12.1456,18.0415
2.14675,-0.0795478,-0.880298,12.4703,18.0363
2.16421,-0.0802814,-0.869906,12.7911,18.0311
2.18166,-0.0810063,-0.859247,13.1079,18.0258
2.19911,-0.0817224,-0.848324,13.4208,18.0205
2.21657,-0.0824293,-0.83714,13.7295,18.0151
2.23402,-0.0831269,-0.825699,14.034,18.0096
2.25147,-0.083815,-0.814004,14.3341,18.0041
2.26893,-0.0844934,-0.802059,14.6298,17.9985
2.28638,-0.0851617,-0.789867,14.921,17.9928
2.30383,-0.08582,-0.777433,15.2077,17.9871
2.32129,-0.0864678,-0.76476,15.4896,17.9814
2.33874,-0.0871051,-0.751852,15.7667,17.9756
2.35619,-0.0877317,-0.738713,16.039,17.9697
2.37365,-0.0883473,-0.725347,16.3063,17.9638
2.3911,-0.0889517,-0.711759,16.5685,17.9579
2.40855,-0.0895448,-0.697952,16.8256,17.952
2.42601,-0.0901265,-0.68393,17.0775,17.946
2.44346,-0.0906964,-0.669699,17.3242,17.94
2.46091,-0.0912545,-0.655262,17.5654,17.9339
2.47837,-0.0918005,-0.640624,17.8013,17.9279
2.49582,-0.0923344,-0.62579,18.0316,17.9218
2.51327,-0.0928559,-0.610763,18.2563,17.9157
2.53073,-0.0933649,-0.59555,18.4754,17.9096
2.54818,-0.0938612,-0.580154,18.6887,17.9035
2.56563,-0.0943446,-0.56458,18.8963,17.8974
2.58309,-0.0948151,-0.548833,19.098,17.8913
2.60054,-0.0952725,-0.532918,19.2938,17.8852
2.61799,-0.0957166,-0.51684,19.4836,17.8791
2.63545,-0.0961473,-0.500603,19.6673,17.873
2.6529,-0.0965644,-0.484214,19.845,17.8669
2.67035,-0.0969679,-0.467676,20.0165,17.8608
2.68781,-0.0973577,-0.450996,20.1818,17.8548
2.70526,-0.0977335,-0.434178,20.3409,17.8487
2.72271,-0.0980953,-0.417227,20.4937,17.8427
2.74017,-0.098443,-0.400149,20.6401,17.8368
2.75762,-0.0987765,-0.382949,20.7801,17.8308
2.77507,-0.0990956,-0.365632,20.9137,17.8249
2.79253,-0.0994003,-0.348204,21.0408,17.819
2.80998,-0.0996904,-0.33067,21.1614,17.8132
2.82743,-0.099966,-0.313036,21.2755,17.8074
2.84489,-0.100227,-0.295306,21.3829,17.8017
2.86234,-0.100473,-0.277487,21.4838,17.796
2.87979,-0.100704,-0.259584,21.578,17.7903
2.89725,-0.100921,-0.241602,21.6655,17.7848
2.9147,-0.101122,-0.223547,21.7464,17.7792
2.93215,-0.101308,-0.205426,21.8205,17.7738
2.94961,-0.101479,-0.187242,21.8879,17.7684
2.96706,-0.101635,-0.169002,21.9485,17.763
2.98451,-0.101776,-0.150711,22.0023,17.7578
3.00197,-0.101902,-0.132376,22.0494,17.7526
3.01942,-0.102012,-0.114002,22.0897,17.7474
3.03687,-0.102107,-0.0955936,22.1231,17.7424
3.05433,-0.102187,-0.0771577,22.1497,17.7374
3.07178,-0.102251,-0.0586996,22.1695,17.7325
3.08923,-0.1023,-0.040225,22.1825,17.7277
3.10669,-0.102334,-0.0217396,22.1886,17.723
3.12414,-0.102352,-0.00324909,22.1879,17.7184
3.14159,-0.102354,0.0152409,22.1804,17.7138
3.15905,-0.102342,0.0337245,22.1661,17.7094
3.1765,-0.102314,0.0521963,22.1449,17.705
3.19395,-0.10227,0.0706504,22.117,17.7008
3.21141,-0.102211,0.0890812,22.0822,17.6966
3.22886,-0.102137,0.107483,22.0407,17.6925
3.24631,-0.102047,0.12585,21.9924,17.6886
3.26377,-0.101942,0.144177,21.9374,17.6847
3.28122,-0.101822,0.162458,21.8756,17.6809
3.29867,-0.101687,0.180688,21.8072,17.6772
3.31613,-0.101536,0.198861,21.732,17.6736
3.33358,-0.101371,0.216971,21.6502,17.6702
3.35103,-0.10119,0.235013,21.5618,17.6668
3.36849,-0.100994,0.252981,21.4668,17.6635
3.38594,-0.100783,0.27087,21.3653,17.6604
3.40339,-0.100557,0.288674,21.2572,17.6573
3.42085,-0.100317,0.306388,21.1426,17.6544
3.4383,-0.100062,0.324007,21.0215,17.6516
3.45575,-0.0997916,0.341525,20.8941,17.6489
3.47321,-0.099507,0.358937,20.7603,17.6463
3.49066,-0.0992078,0.376237,20.6202,17.6436
3.50811,-0.0988943,0.393421,20.4738,17.641
3.52557,-0.0985665,0.410482,20.3212,17.6386
3.54302,-0.0982244,0.427416,20.1623,17.6362
3.56047,-0.0978682,0.444218,19.9974,17.634
3.57792,-0.097498,0.460883,19.8264,17.6319
3.59538,-0.097114,0.477405,19.6494,17.6299
3.61283,-0.0967161,0.493779,19.4664,17.628
3.63028,-0.0963046,0.510001,19.2774,17.6263
3.64774,-0.0958796,0.526066,19.0827,17.6246
3.66519,-0.0954413,0.541968,18.8822,17.6231
3.68264,-0.0949896,0.557703,18.6759,17.6216
3.7001,-0.0945249,0.573266,18.464,17.6203
3.71755,-0.0940471,0.588653,18.2465,17.6191
3.735,-0.0935566,0.603859,18.0235,17.618
3.75246,-0.0930534,0.618878,17.795,17.617
3.76991,-0.0925377,0.633707,17.5612,17.6161
3.78736,-0.0920096,0.648342,17.3221,17.6153
3.80482,-0.0914693,0.662777,17.0777,17.6147
3.82227,-0.090917,0.677008,16.8282,17.6141
3.83972,-0.0903528,0.691032,16.5736,17.6137
3.85718,-0.0897769,0.704843,16.314,17.6133
3.87463,-0.0891896,0.718438,16.0496,17.613
3.89208,-0.0885909,0.731813,15.7802,17.6129
3.90954,-0.087981,0.744963,15.5062,17.6128
3.92699,-0.0873602,0.757885,15.2275,17.6129
3.94444,-0.0867286,0.770574,14.9442,17.613
3.9619,-0.0860865,0.783028,14.6564,17.6132
3.97935,-0.085434,0.795241,14.3642,17.6135
3.9968,-0.0847713,0.807212,14.0678,17.6139
4.01426,-0.0840986,0.818935,13.7671,17.6144
4.03171,-0.0834162,0.830407,13.4623,17.615
4.04916,-0.0827241,0.841626,13.1534,17.6157
4.06662,-0.0820228,0.852587,12.8407,17.6164
4.08407,-0.0813123,0.863288,12.5241,17.6173
4.10152,-0.0805929,0.873724,12.2037,17.6182
4.11898,-0.0798648,0.883894,11.8797,17.6192
4.13643,-0.0791282,0.893794,11.5522,17.6202
4.15388,-0.0783834,0.903421,11.2212,17.6214
4.17134,-0.0776305,0.912772,10.8869,17.6226
4.18879,-0.0768699,0.921844,10.5494,17.6239
4.20624,-0.0761017,0.930635,10.2087,17.6252
4.2237,-0.0753262,0.939143,9.86495,17.6266
4.24115,-0.0745435,0.947363,9.5183,17.6281
4.2586,-0.0737541,0.955295,9.16883,17.6296
4.27606,-0.072958,0.962936,8.81664,17.6312
4.29351,-0.0721555,0.970283,8.46185,17.6329
4.31096,-0.071347,0.977335,8.10456,17.6346
4.32842,-0.0705325,0.984088,7.74487,17.6364
4.34587,-0.0697125,0.990543,7.3829,17.6382
4.36332,-0.068887,0.996695,7.01875,17.6401
4.38078,-0.0680564,1.00254,6.65255,17.642
4.39823,-0.067221,1.00809,6.28439,17.6439
4.41568,-0.0663809,1.01332,5.91439,17.6459
4.43314,-0.0655365,1.01825,5.54266,17.648
4.45059,-0.0646879,1.02287,5.16931,17.6501
4.46804,-0.0638355,1.02718,4.79446,17.6522
4.4855,-0.0629795,1.03118,4.41821,17.6544
4.50295,-0.0621202,1.03486,4.04069,17.6566
4.5204,-0.0612578,1.03822,3.66201,17.6588
4.53786,-0.0603927,1.04128,3.28227,17.6611
4.55531,-0.0595249,1.04401,2.9016,17.6634
4.57276,-0.0586549,1.04643,2.52011,17.6658
4.59022,-0.0577829,1.04853,2.13792,17.6681
4.60767,-0.0569091,1.05031,1.75513,17.6705
4.62512,-0.0560339,1.05177,1.37187,17.6729
4.64258,-0.0551574,1.05292,0.988247,17.6754
4.66003,-0.05428,1.05374,0.604379,17.6778
4.67748,-0.0534018,1.05424,0.220382,17.6803
4.69494,-0.0525233,1.05443,-0.163629,17.6828
4.71239,-0.0516446,1.05429,-0.54754,17.6854
4.72984,-0.050766,1.05384,-0.931234,17.6879
4.7473,-0.0498878,1.05306,-1.3146,17.6905
4.76475,-0.0490103,1.05196,-1.69751,17.693
4.7822,-0.0481337,1.05055,-2.07987,17.6956
4.79966,-0.0472582,1.04882,-2.46154,17.6982
4.81711,-0.0463842,1.04676,-2.84243,17.7009
4.83456,-0.0455119,1.0444,-3.22241,17.7035
4.85202,-0.0446415,1.04171,-3.60138,17.7061
4.86947,-0.0437735,1.03871,-3.97921,17.7088
4.88692,-0.0429079,1.03539,-4.3558,17.7115
4.90438,-0.042045,1.03176,-4.73102,17.7142
4.92183,-0.0411852,1.02782,-5.10478,17.7169
4.93928,-0.0403287,1.02357,-5.47696,17.7196
4.95674,-0.0394757,1.019,-5.84744,17.7223
4.97419,-0.0386266,1.01413,-6.21611,17.725
4.99164,-0.0377815,1.00895,-6.58287,17.7277
5.00909,-0.0369407,1.00346,-6.94761,17.7304
5.02655,-0.0361045,0.997674,-7.31021,17.7332
5.044,-0.0352731,0.991583,-7.67057,17.7359
5.06145,-0.0344467,0.98519,-8.02857,17.7387
5.07891,-0.0336258,0.9785,-8.38413,17.7415
5.09636,-0.0328103,0.971513,-8.73711,17.7442
5.11381,-0.0320007,0.964232,-9.08743,17.747
5.13127,-0.0311972,0.956659,-9.43498,17.7498
5.14872,-0.0304,0.948797,-9.77964,17.7526
5.16617,-0.0296093,0.940647,-10.1213,17.7554
5.18363,-0.0288255,0.932213,-10.4599,17.7582
5.20108,-0.0280486,0.923496,-10.7953,17.7609
5.21853,-0.027279,0.9145,-11.1275,17.7636
5.23599,-0.026517,0.905227,-11.4562,17.7663
5.25344,-0.0257626,0.89568,-11.7814,17.769
5.27089,-0.0250162,0.885862,-12.1031,17.7717
5.28835,-0.024278,0.875777,-12.4211,17.7744
5.3058,-0.0235482,0.865426,-12.7354,17.7771
5.32325,-0.022827,0.854813,-13.0457,17.7799
5.34071,-0.0221146,0.843941,-13.3521,17.7826
5.35816,-0.0214113,0.832815,-13.6545,17.7854
5.37561,-0.0207173,0.821436,-13.9527,17.7881
5.39307,-0.0200328,0.809809,-14.2467,17.7909
5.41052,-0.019358,0.797936,-14.5364,17.7937
5.42797,-0.018693,0.785823,-14.8217,17.7965
5.44543,-0.0180382,0.773471,-15.1025,17.7993
5.46288,-0.0173936,0.760886,-15.3788,17.8021
5.48033,-0.0167595,0.74807,-15.6504,17.8049
5.49779,-0.0161361,0.735028,-15.9172,17.8078
5.51524,-0.0155236,0.721764,-16.1793,17.8107
5.53269,-0.0149221,0.708281,-16.4365,17.8135
5.55015,-0.0143319,0.694584,-16.6887,17.8164
5.5676,-0.0137531,0.680677,-16.9358,17.8194
5.58505,-0.0131859,0.666563,-17.1779,17.8223
5.60251,-0.0126304,0.652249,-17.4147,17.8253
5.61996,-0.0120869,0.637736,-17.6463,17.8282
5.63741,-0.0115554,0.623031,-17.8726,17.8312
5.65487,-0.0110362,0.608137,-18.0935,17.8343
5.67232,-0.0105294,0.593059,-18.3089,17.8373
5.68977,-0.0100352,0.577802,-18.5188,17.8404
5.70723,-0.00955372,0.56237,-18.7232,17.8434
5.72468,-0.00908508,0.546767,-18.9218,17.8465
5.74213,-0.00862944,0.530999,-19.1148,17.8497
5.75959,-0.00818694,0.51507,-19.302,17.8528
5.77704,-0.00775771,0.498985,-19.4835,17.856
5.79449,-0.00734189,0.482748,-19.659,17.8592
5.81195,-0.0069396,0.466366,-19.8286,17.8624
5.8294,-0.00655096,0.449842,-19.9922,17.8657
5.84685,-0.0061761,0.433182,-20.1499,17.8689
5.86431,-0.00581511,0.41639,-20.3014,17.8722
5.88176,-0.00546812,0.399472,-20.4468,17.8755
5.89921,-0.00513523,0.382433,-20.5861,17.8789
5.91667,-0.00481653,0.365278,-20.7192,17.8823
5.93412,-0.00451213,0.348012,-20.846,17.8856
5.95157,-0.00422212,0.330641,-20.9666,17.8891
5.96903,-0.00394659,0.313168,-21.0809,17.8925
5.98648,-0.00368561,0.295601,-21.1888,17.896
6.00393,-0.00343928,0.277944,-21.2903,17.8995
6.02139,-0.00320766,0.260202,-21.3854,17.903
6.03884,-0.00299083,0.242381,-21.4741,17.9065
6.05629,-0.00278884,0.224486,-21.5564,17.9101
6.07375,-0.00260177,0.206522,-21.6321,17.9137
6.0912,-0.00242967,0.188495,-21.7013,17.9173
6.10865,-0.00227259,0.170411,-21.764,17.9209
6.12611,-0.00213058,0.152274,-21.8202,17.9246
6.14356,-0.00200369,0.134091,-21.8697,17.9283
6.16101,-0.00189194,0.115866,-21.9127,17.9319
6.17847,-0.00179539,0.0976052,-21.9491,17.9357
6.19592,-0.00171405,0.0793142,-21.9789,17.9394
6.21337,-0.00164796,0.0609985,-22.0021,17.9432
6.23083,-0.00159712,0.0426634,-22.0186,17.9469
6.24828,-0.00156157,0.0243145,-22.0286,17.9507
6.26573,-0.00154131,0.00595737,-22.0319,17.9545
